date,open,high,low,close,adjclose,volume
2024-10-08,158.28,159.02,157.1,158.67,154.5413,205900
2024-10-09,158.35,160.05,158.12,159.7,155.5444,152600
2024-10-10,158.05,159.38,158.05,159.22,155.0769,168500
2024-10-11,160.94,161.92,160.35,161.55,157.3463,194400
2024-10-14,164.99,167.76,163.46,167.19,162.8396,469700
2024-10-15,167.32,169.66,166.49,168.68,164.2908,397300
2024-10-16,168.7,169.2,165.92,166.04,161.7195,330000
2024-10-17,166.98,168.32,166.52,167.89,163.5213,238200
2024-10-18,169.1,169.1,167.78,168.63,164.2421,171500
2024-10-21,168.47,168.49,166.3,166.33,162.0019,217900
2024-10-22,165.72,166.37,164.81,165.81,161.4955,228500
2024-10-23,166.51,167.98,166.16,167.65,163.2876,318100
2024-10-24,168.32,168.33,166.15,166.55,162.6528,547300
2024-10-25,168.92,169.85,164.61,168.91,164.9576,518900
2024-10-28,169.9,171.41,168.76,169.1,165.1431,350000
2024-10-29,169.03,169.49,167.64,168.7,164.7525,338100
2024-10-30,168.35,170.2,168.12,169.03,165.0748,290300
2024-10-31,169.09,170.28,167.86,167.91,163.981,329900
2024-11-01,168.1,170.99,167.62,169.41,165.4459,316300
2024-11-04,169.63,170.57,168.18,168.26,164.3228,191800
2024-11-05,167.74,170.36,167.74,170.31,166.3248,206200
2024-11-06,175.15,175.15,172.14,173.16,169.1081,264100
2024-11-07,174.2,175.46,173.54,174.71,170.6219,412300
2024-11-08,174.7,177.84,174.49,175.76,171.6473,309200
2024-11-11,176.32,178.03,175.9,176.15,172.0282,189100
2024-11-12,176.65,177.24,174.95,175.7,171.5887,179800
2024-11-13,175.5,176.39,175.05,175.5,171.3934,168400
2024-11-14,175.15,175.79,173.91,174.1,170.0262,198200
2024-11-15,172.97,173.76,166.17,166.49,162.5942,620500
2024-11-18,166.39,167.82,164.33,166.69,162.7895,384400
2024-11-19,166.42,167.67,166.2,166.9,162.9946,287600
2024-11-20,167.0,168.94,165.65,168.73,164.7818,221800
2024-11-21,168.69,170.23,167.74,169.88,165.9049,205100
2024-11-22,170.18,172.07,170.18,171.51,167.4967,241600
2024-11-25,172.05,174.02,171.74,172.5,168.4636,270100
2024-11-26,172.86,172.86,171.16,172.04,168.0143,140300
2024-11-27,172.67,173.88,171.52,171.73,167.7116,167200
2024-11-29,172.59,173.49,172.09,172.96,168.9128,117300
2024-12-02,172.98,173.11,170.84,172.76,168.7175,170900
2024-12-03,173.45,173.45,171.09,172.4,168.3659,160100
2024-12-04,171.89,172.89,171.03,172.59,168.5515,173400
2024-12-05,172.01,172.44,170.53,171.1,167.0963,245000
2024-12-06,171.6,172.65,170.85,171.15,167.1451,209200
2024-12-09,171.56,173.47,170.23,170.79,166.7936,301700
2024-12-10,170.72,171.37,168.19,170.91,166.9108,287000
2024-12-11,171.88,174.1,171.75,172.31,168.278,418600
2024-12-12,171.67,172.6,170.78,171.64,167.6237,178300
2024-12-13,170.91,171.0,169.82,170.2,166.2174,153200
2024-12-16,170.14,170.93,167.59,167.63,163.7075,236100
2024-12-17,166.9,166.91,162.84,163.09,159.2737,511900
2024-12-18,163.69,164.42,157.91,158.21,154.5079,468600
2024-12-19,158.51,161.57,158.23,158.87,155.1525,404700
2024-12-20,158.72,159.78,157.47,158.18,154.4786,730200
2024-12-23,157.17,158.9,156.96,158.52,154.8107,194900
2024-12-24,158.78,159.42,157.92,159.35,155.6213,100500
2024-12-26,158.42,159.63,158.42,158.85,155.133,164500
2024-12-27,157.82,159.58,157.61,158.15,154.4494,145000
2024-12-30,157.0,157.49,155.0,156.73,153.0626,221700
2024-12-31,157.28,158.25,156.18,157.1,153.4239,317100
2025-01-02,157.65,158.11,153.45,154.16,150.5527,239400
2025-01-03,154.04,155.72,152.87,155.5,151.8614,250700
2025-01-06,154.0,154.64,151.44,152.92,149.3417,369000
2025-01-07,155.92,156.06,152.6,153.43,149.8398,361200
2025-01-08,152.89,154.26,152.09,154.15,150.543,228600
2025-01-10,152.72,154.3,152.58,153.45,149.8593,350800
2025-01-13,152.93,154.7,152.93,153.89,150.289,349300
2025-01-14,154.81,155.45,153.48,154.61,150.9922,196900
2025-01-15,156.12,156.92,154.17,155.56,151.92,206100
2025-01-16,155.89,157.17,155.31,156.41,152.7501,346300
2025-01-17,156.97,157.95,155.68,156.09,152.4376,231900
2025-01-21,156.72,160.26,156.72,159.83,156.09,270900
2025-01-22,159.34,160.75,158.34,159.07,155.3478,280000
2025-01-23,158.46,159.81,157.73,159.62,155.8849,149800
2025-01-24,159.65,160.47,157.22,158.3,154.5958,329600
2025-01-27,158.25,158.92,156.65,158.46,154.7521,317000
2025-01-28,157.57,160.35,157.57,158.42,154.7131,204300
2025-01-29,158.78,158.82,156.62,157.11,153.4337,265800
2025-01-30,157.82,158.68,156.58,158.13,154.4298,274200
2025-01-31,157.9,159.39,156.76,157.15,153.4727,834100
2025-02-03,154.58,156.75,154.14,155.98,152.3301,364600
2025-02-04,156.09,158.46,156.09,157.7,154.0099,302400
2025-02-05,158.28,159.66,157.78,158.32,155.0578,262600
2025-02-06,159.84,159.84,155.37,156.45,153.2264,446600
2025-02-07,157.62,157.9,142.04,143.18,140.2298,1221500
2025-02-10,144.26,144.6,140.9,143.28,140.3277,621900
2025-02-11,142.27,143.07,140.26,142.29,139.3581,377300
2025-02-12,140.97,143.49,139.93,141.7,138.7803,423500
2025-02-13,142.75,143.78,141.46,142.77,139.8283,665900
2025-02-14,143.69,145.31,142.72,144.79,141.8066,512800
2025-02-18,144.79,147.29,143.9,146.9,143.8732,489600
2025-02-19,146.14,147.49,145.61,147.04,144.0102,331000
2025-02-20,146.97,147.42,145.92,146.68,143.6577,283100
2025-02-21,147.03,147.39,145.2,146.34,143.3247,451900
2025-02-24,146.18,147.29,144.36,145.61,142.6097,353300
2025-02-25,145.88,148.33,145.72,147.71,144.6665,336700
2025-02-26,146.65,149.18,146.62,146.64,143.6185,735600
2025-02-27,146.23,147.18,145.36,145.63,142.6293,262800
2025-02-28,146.16,146.95,144.63,146.75,143.7262,348700
2025-03-03,146.97,148.84,145.69,146.59,143.5695,394100
2025-03-04,145.54,147.95,145.14,145.94,142.9329,490100
2025-03-05,146.05,148.85,146.05,148.44,145.3814,445100
2025-03-06,147.56,151.5,147.06,151.15,148.0356,471700
2025-03-07,150.51,153.36,149.18,152.78,149.632,480200
2025-03-10,152.07,154.0,150.24,150.57,147.4675,391100
2025-03-11,150.34,150.56,147.27,147.89,144.8427,304000
2025-03-12,148.24,148.24,145.56,146.03,143.0211,299700
2025-03-13,146.41,147.2,143.76,144.76,141.7772,238400
2025-03-14,145.23,146.89,144.54,146.66,143.6381,223600
2025-03-17,146.51,148.0,145.86,147.84,144.7938,225200
2025-03-18,147.39,147.53,145.78,146.3,143.2855,219900
2025-03-19,146.34,147.46,145.47,146.98,143.9515,279600
2025-03-20,146.13,147.42,143.73,145.2,142.2082,332800
2025-03-21,144.0,145.46,142.36,144.82,141.836,601900
2025-03-24,145.75,148.18,144.91,147.99,144.9407,463800
2025-03-25,148.49,149.23,145.93,147.21,144.1768,325200
2025-03-26,147.05,148.7,146.3,148.56,145.4989,630400
2025-03-27,148.28,149.89,147.03,149.35,146.2727,312700
2025-03-28,149.29,150.0,145.76,146.93,143.9025,239800
2025-03-31,146.58,149.09,146.1,148.38,145.3227,372500
2025-04-01,148.88,150.03,147.38,149.1,146.0278,240000
2025-04-02,148.0,151.13,148.0,150.53,147.4283,247600
2025-04-03,146.76,150.05,146.46,148.67,145.6067,352900
2025-04-04,145.22,147.96,140.04,140.18,137.2916,531600
2025-04-07,136.34,142.12,130.85,134.65,131.8755,629900
2025-04-08,137.38,139.31,131.28,133.66,130.906,473800
2025-04-09,133.18,144.42,131.32,143.75,140.7881,491800
2025-04-10,140.0,143.37,137.57,140.76,137.8596,309000
2025-04-11,140.87,144.71,139.74,144.11,141.1406,203000
2025-04-14,145.8,146.4,143.79,145.79,142.786,249300
2025-04-15,146.1,146.54,143.77,143.94,140.9741,250700
2025-04-16,144.06,145.82,142.57,145.0,142.0123,307700
2025-04-17,145.4,145.76,140.71,143.83,140.8664,390600
2025-04-21,143.3,144.05,141.1,142.58,139.6422,291600
2025-04-22,144.5,146.82,143.59,146.02,143.0113,217800
2025-04-23,147.87,149.32,147.22,148.05,144.9995,537000
2025-04-24,147.93,152.0,145.46,151.46,148.3392,424500
2025-04-25,150.85,153.0,147.57,149.06,145.9886,220500
2025-04-28,149.8,151.03,148.28,149.7,146.6154,235200
2025-04-29,149.76,151.98,149.01,150.3,147.2031,359900
2025-04-30,149.07,149.99,147.21,149.95,146.8603,556200
2025-05-01,148.45,150.53,146.96,148.28,145.6618,445300
2025-05-02,152.99,153.0,147.79,152.0,149.3162,431600
2025-05-05,151.43,153.22,150.88,151.48,148.8053,267600
2025-05-06,150.25,152.04,149.42,150.92,148.2552,312000
2025-05-07,151.88,153.15,150.62,151.39,148.7169,318400
2025-05-08,151.79,154.57,151.24,153.36,150.6521,302500
2025-05-09,153.91,154.3,152.94,153.32,150.6129,231600
2025-05-12,155.79,156.59,153.7,155.52,152.774,352500
2025-05-13,156.31,156.31,153.2,153.64,150.9272,339400
2025-05-14,153.62,153.62,150.97,152.48,149.7877,350100
2025-05-15,152.35,155.48,152.35,154.95,152.2141,278100
2025-05-16,155.18,157.15,154.59,157.01,154.2377,278600
2025-05-19,156.36,158.34,156.31,158.08,155.2888,185400
2025-05-20,160.26,160.26,157.91,158.53,155.7308,388100
2025-05-21,156.86,157.65,155.83,156.45,153.6876,319800
2025-05-22,156.36,157.26,155.56,156.65,153.884,278900
2025-05-23,155.12,156.18,154.26,155.94,153.1866,260500
2025-05-27,157.03,158.44,156.69,158.16,155.3674,352800
2025-05-28,158.16,158.84,157.26,157.4,154.6208,364400
2025-05-29,157.83,158.67,156.82,158.33,155.5344,232100
2025-05-30,158.24,158.78,156.54,158.4,155.6031,335100
2025-06-02,157.54,159.07,155.26,156.91,154.1395,349600
2025-06-03,156.18,157.44,156.0,156.26,153.5009,397800
2025-06-04,156.49,156.52,150.29,150.41,147.7542,831900
2025-06-05,151.58,153.34,149.05,152.49,149.7975,482400
2025-06-06,154.37,154.48,152.21,153.31,150.603,264700
2025-06-09,152.71,153.18,151.36,151.6,148.9232,388400
2025-06-10,152.16,153.0,150.86,152.53,149.8368,323500
2025-06-11,153.0,153.59,151.6,151.92,149.2376,380800
2025-06-12,151.41,154.62,151.41,154.35,151.6247,337200
2025-06-13,153.0,153.72,150.73,151.16,148.491,361200
2025-06-16,151.24,152.9,151.12,151.69,149.0116,346200
2025-06-17,150.66,151.26,149.13,149.45,146.8112,379700
2025-06-18,149.12,150.73,149.12,149.7,147.0568,383200
2025-06-20,150.29,150.77,148.99,150.3,147.6462,570500
2025-06-23,149.49,153.94,149.49,153.79,151.0745,356500
2025-06-24,154.57,154.57,153.18,153.87,151.1531,246600
2025-06-25,153.86,154.53,152.77,153.93,151.2121,264700
2025-06-26,154.53,155.58,153.12,154.48,151.7523,658200
2025-06-27,154.66,156.11,154.23,155.82,153.0687,643100
2025-06-30,156.03,156.5,154.61,156.43,153.6679,315500
2025-07-01,156.43,159.8,155.96,159.01,156.2024,338300
2025-07-02,159.02,160.53,158.65,160.32,157.4893,293500
2025-07-03,160.6,161.36,159.82,161.04,158.1965,235100
2025-07-07,160.95,162.37,160.55,160.96,158.118,313900
2025-07-08,160.9,162.58,159.85,160.05,157.224,342700
2025-07-09,159.93,160.01,158.1,159.73,156.9097,252800
2025-07-10,159.19,160.36,158.33,158.33,155.5344,361600
2025-07-11,158.56,158.56,156.63,157.9,155.112,292000
2025-07-14,157.14,158.94,156.69,157.56,154.778,276600
2025-07-15,157.74,158.0,154.07,154.16,151.438,254200
2025-07-16,153.92,155.61,153.55,154.98,152.2435,261900
2025-07-17,154.74,156.41,154.51,156.03,153.275,397700
2025-07-18,156.85,157.21,154.92,156.38,153.6188,243100
2025-07-21,156.42,156.67,155.24,155.45,152.7052,205900
2025-07-22,156.11,159.36,155.23,159.17,156.3595,449900
2025-07-23,160.07,161.85,159.14,161.66,158.8056,450500
2025-07-24,160.96,164.28,159.79,161.82,159.4065,431900
2025-07-25,162.05,163.09,160.78,160.99,158.5889,296300
2025-07-28,161.2,161.98,158.16,158.7,156.333,308500
2025-07-29,159.05,159.6,157.22,158.82,156.4513,388200
2025-07-30,158.8,158.93,154.92,156.79,154.4515,580700
2025-07-31,155.78,157.35,155.18,157.14,154.7963,679700
2025-08-01,156.97,158.12,141.09,141.35,139.2418,1012300
2025-08-04,143.12,143.12,137.08,139.13,137.0549,839000
2025-08-05,139.34,141.07,137.69,140.22,138.1286,540800
2025-08-06,140.31,140.76,137.55,138.54,136.4737,515300
2025-08-07,139.8,141.49,138.91,140.49,138.3946,564000
2025-08-08,140.69,142.05,140.58,140.75,138.6507,428700
2025-08-11,141.33,141.62,139.2,139.87,137.7839,349500
2025-08-12,140.22,141.09,139.23,139.48,137.3997,286100
2025-08-13,139.69,141.44,139.25,141.43,139.3206,729900
2025-08-14,140.19,140.19,136.44,138.34,136.2767,875800
2025-08-15,138.36,138.95,137.87,138.72,136.651,770500
2025-08-18,138.89,139.57,137.35,137.89,135.8334,529500
2025-08-19,138.27,140.52,138.27,139.59,137.508,333100
2025-08-20,139.91,141.25,139.26,141.18,139.0743,519200
2025-08-21,140.63,141.9,140.24,140.64,138.5424,270400
2025-08-22,141.26,143.33,141.19,141.43,139.3206,356500
2025-08-25,140.97,141.61,138.96,139.56,137.4785,245800
2025-08-26,139.07,140.16,138.01,139.71,137.6263,442900
2025-08-27,139.09,140.57,139.03,139.44,137.3603,729100
2025-08-28,140.17,140.17,137.4,138.89,136.8185,320800
2025-08-29,139.17,139.87,138.35,139.27,137.1928,370700
2025-09-02,137.42,138.53,136.17,136.41,134.3755,310600
2025-09-03,136.08,136.18,134.44,135.22,133.2032,382300
2025-09-04,136.35,138.48,135.04,138.46,136.3949,401800
2025-09-05,139.02,140.82,137.63,138.62,136.5525,440800
2025-09-08,138.59,140.0,137.68,138.3,136.2373,616100
2025-09-09,138.26,139.48,135.1,137.05,135.0059,637100
2025-09-10,136.13,137.46,134.85,136.25,134.2179,685100
2025-09-11,136.75,138.28,135.87,137.1,135.0552,477500
2025-09-12,136.62,137.05,135.22,135.23,133.2131,261300
2025-09-15,135.97,136.17,134.63,134.85,132.8387,298000
2025-09-16,134.79,135.42,134.1,135.21,133.1934,474800
2025-09-17,135.42,137.07,134.19,134.65,132.6417,377400
2025-09-18,134.9,135.51,134.07,134.5,132.494,254800
2025-09-19,134.66,135.1,133.34,134.44,132.4348,877200
2025-09-22,134.12,134.94,132.67,132.72,130.7405,402100
2025-09-23,133.01,133.95,131.97,132.02,130.0509,319700
2025-09-24,132.0,133.31,131.34,131.5,129.5387,353300
2025-09-25,131.5,132.52,130.27,130.82,128.8689,388700
2025-09-26,131.33,132.43,130.96,132.29,130.3169,274400
2025-09-29,132.4,132.68,131.36,132.27,130.2972,540600
2025-09-30,131.71,133.76,131.71,133.66,131.6665,310400
2025-10-01,133.33,134.36,132.31,134.14,132.1393,310100
2025-10-02,133.66,134.39,132.96,133.18,131.1936,398500
2025-10-03,132.47,133.58,132.43,133.22,131.233,402000
2025-10-06,132.89,133.2,131.41,131.88,129.913,447100
2025-10-07,132.11,132.51,129.81,130.59,128.6423,438800
2025-10-08,131.18,132.01,130.26,131.61,129.6471,361300
2025-10-09,131.7,132.84,130.2,130.61,128.662,554200
2025-10-10,130.94,132.01,129.89,130.93,128.9772,426000
2025-10-13,130.99,132.35,130.16,130.22,128.2778,311400
2025-10-14,130.04,131.06,129.04,129.8,127.8641,337400
2025-10-15,129.8,130.39,127.86,128.1,126.1894,438300
2025-10-16,128.44,129.5,127.85,129.16,127.2336,352700
2025-10-17,129.16,130.1,128.85,129.34,127.4109,339700
2025-10-20,129.61,130.09,128.02,130.0,128.0611,240500
2025-10-21,130.61,131.77,129.12,130.57,128.6226,311600
2025-10-22,130.65,132.11,129.98,130.06,128.1202,357500
2025-10-23,129.74,131.53,129.66,130.77,129.2968,378600
2025-10-24,130.75,130.89,128.54,128.88,127.4281,489300
2025-10-27,129.14,129.9,128.45,128.78,127.3292,521700
2025-10-28,128.75,129.11,127.47,128.1,126.6569,413500
2025-10-29,127.28,127.5,123.42,124.31,122.9095,651100
2025-10-30,124.04,125.52,123.04,124.36,122.959,702600
2025-10-31,115.29,118.1,103.23,116.01,114.7031,2758200
2025-11-03,116.09,116.09,108.29,113.12,111.8456,1661000
2025-11-04,114.36,116.0,112.53,114.18,112.8937,1029100
2025-11-05,114.33,116.04,112.77,115.57,114.268,896900
2025-11-06,115.02,116.96,113.8,116.15,114.8415,880300
2025-11-07,116.23,116.92,114.69,116.22,114.9107,697200
2025-11-10,115.99,116.77,114.0,116.38,115.0689,514000
2025-11-11,116.96,119.51,116.96,118.27,116.9376,484800
2025-11-12,118.34,119.67,117.91,118.16,116.8288,547500
2025-11-13,118.3,121.88,118.3,120.2,118.8458,679400
2025-11-14,119.77,120.69,118.39,118.61,117.2738,521200
2025-11-17,118.49,119.49,117.57,119.34,117.9955,820200
2025-11-18,119.66,120.11,118.06,119.31,117.9659,817400
2025-11-19,119.51,119.51,117.71,118.0,116.6706,598900
2025-11-20,118.0,119.61,117.37,118.58,117.2441,507400
2025-11-21,118.13,122.24,118.13,121.52,120.151,509100
2025-11-24,120.85,122.4,120.44,121.47,120.1015,740000
2025-11-25,122.41,124.08,122.41,123.44,122.0494,543600
2025-11-26,123.02,124.52,123.02,123.81,122.4152,538000
2025-11-28,123.63,126.08,123.63,124.75,123.3446,315700
2025-12-01,124.88,124.96,123.03,123.28,121.8912,536800
2025-12-02,123.77,123.86,120.8,121.6,120.2301,325400
2025-12-03,121.45,124.26,121.41,122.06,120.6849,543100
2025-12-04,122.2,124.08,121.93,122.02,120.6453,708000
2025-12-05,121.99,123.51,120.62,121.91,120.5366,537000
2025-12-08,120.92,122.1,119.3,120.07,118.7173,496600
2025-12-09,119.6,119.85,115.36,115.72,114.4163,640300
2025-12-10,116.17,117.8,115.13,117.17,115.85,734700
2025-12-11,117.96,118.67,117.16,118.01,116.6805,389700
2025-12-12,118.52,121.64,117.65,121.47,120.1015,656400
2025-12-15,121.48,122.46,120.48,122.33,120.9519,588600
2025-12-16,122.67,123.85,119.52,122.83,121.4462,644800
2025-12-17,122.11,124.6,120.08,123.63,122.2372,567300
2025-12-18,123.67,124.12,122.03,122.62,121.2386,457100
2025-12-19,123.34,124.33,121.26,121.39,120.0225,1300400
2025-12-22,121.39,123.7,121.07,122.74,121.3572,527800
2025-12-23,122.87,123.03,121.32,122.19,120.8134,311700
2025-12-24,122.53,123.17,121.76,122.75,121.3671,198000
2025-12-26,122.37,123.48,121.72,123.25,121.8615,306000
2025-12-29,123.29,124.31,122.32,123.21,121.8219,400200
2025-12-30,122.8,124.3,122.42,122.74,121.3572,289800
2025-12-31,121.52,123.33,121.35,121.96,120.586,314300
2026-01-02,121.74,123.0,120.78,122.54,121.1595,295100
2026-01-05,121.76,124.58,121.76,123.0,121.6143,435700
2026-01-06,122.22,122.85,120.11,120.56,119.2018,777200
2026-01-07,120.67,121.95,117.61,120.44,119.0832,478500
2026-01-08,119.92,123.37,119.52,122.44,121.0606,330000
2026-01-09,122.08,124.97,121.46,123.85,122.4547,429100
2026-01-12,124.0,125.3,122.98,125.13,123.7203,477300
2026-01-13,125.05,125.44,122.54,123.5,122.1087,351900
2026-01-14,124.11,127.16,124.11,126.85,125.4209,611700
2026-01-15,127.14,127.22,124.52,125.11,123.7005,381000
2026-01-16,124.0,125.2,123.24,124.71,123.305,363400
2026-01-20,124.9,125.53,123.44,123.82,122.4251,275100
2026-01-21,124.31,125.62,123.9,125.01,123.6017,421000
2026-01-22,125.05,126.41,124.06,124.47,123.0677,369700
2026-01-23,124.34,126.28,123.87,126.0,124.5805,429500
2026-01-26,126.42,126.99,125.1,126.35,124.9266,315400
2026-01-27,124.95,126.3,124.17,124.74,123.3347,303100
2026-01-28,124.2,125.07,123.25,123.7,122.3064,347800
2026-01-29,124.29,125.28,122.59,123.85,122.4547,386000
2026-01-30,122.91,125.01,122.66,124.95,123.5423,512700
2026-02-02,124.2,125.91,124.2,124.83,123.4237,489100
2026-02-03,123.91,127.93,123.69,124.63,123.2259,658700
2026-02-04,125.71,130.42,124.7,129.23,128.2681,589400
2026-02-05,127.67,129.08,121.96,123.98,123.0572,2144200
2026-02-06,127.53,135.99,127.53,134.31,133.3103,1045700
2026-02-09,133.58,139.57,133.25,138.47,137.4394,1043400
2026-02-10,137.81,140.93,137.81,140.17,139.1267,622100
2026-02-11,139.03,140.55,138.6,140.01,138.9679,584300
2026-02-12,140.16,142.0,139.39,140.51,139.4642,572700
2026-02-13,140.51,142.93,140.41,142.58,141.5188,471900
2026-02-17,139.26,143.62,139.26,141.65,140.5957,614700
2026-02-18,141.47,143.11,140.84,141.72,140.6652,582000
2026-02-19,141.65,143.32,141.03,143.16,142.0945,525500
2026-02-20,143.12,145.14,142.0,145.05,143.9704,664500
2026-02-23,143.49,146.24,143.13,145.72,144.6354,513500
2026-02-24,146.07,146.91,143.85,144.14,143.0672,429800
2026-02-25,142.41,143.66,140.43,142.68,141.618,348900
2026-02-26,143.52,143.92,141.0,141.79,140.7346,331300
2026-02-27,141.53,144.01,141.0,143.71,142.6404,344600
2026-03-02,143.0,143.35,141.62,142.67,141.6081,335000
2026-03-03,140.64,141.32,136.92,139.76,138.7197,347300
2026-03-04,139.34,139.51,136.01,137.04,136.02,389000
2026-03-05,136.0,136.34,134.41,134.73,133.7272,452300
2026-03-06,134.0,134.0,131.0,132.08,131.0969,398500
2026-03-09,130.97,133.98,127.53,133.75,132.7545,545700
2026-03-10,133.35,134.13,131.4,132.13,131.1465,503100
2026-03-11,131.8,133.28,130.04,132.02,131.0374,563800
2026-03-12,131.27,132.79,128.64,128.86,127.9009,620600
2026-03-13,130.15,130.15,127.05,128.65,127.6925,660600
2026-03-16,129.48,131.41,126.0,129.05,128.0895,370700
2026-03-17,129.97,131.02,128.24,129.5,128.5361,276700
2026-03-18,124.38,126.58,121.42,124.22,123.2954,910500
2026-03-19,123.01,124.82,121.45,123.97,123.0473,518500
2026-03-20,124.26,124.26,120.31,121.06,120.1589,1481500
2026-03-23,123.51,126.34,122.99,124.14,123.216,455200
2026-03-24,123.16,125.22,122.87,124.15,123.2259,405000
2026-03-25,125.44,126.57,123.71,125.82,124.8835,337200
2026-03-26,125.22,127.34,124.12,124.69,123.7619,442100
2026-03-27,123.94,124.21,121.76,121.99,121.082,381400
2026-03-30,122.56,123.94,121.1,123.36,122.4418,562000
2026-03-31,124.39,126.96,123.59,126.02,125.082,557800
2026-04-01,127.34,128.64,126.33,126.75,125.8066,380200
2026-04-02,125.14,127.09,124.25,126.01,125.0721,297500
2026-04-06,124.59,126.19,124.59,126.01,125.0721,461100
2026-04-07,125.32,127.17,124.8,125.61,124.6751,376900
2026-04-08,131.38,132.67,128.15,132.02,131.0374,645200
2026-04-09,131.22,132.44,127.34,131.4,130.422,424100
2026-04-10,132.25,132.7,130.85,131.5,130.5212,407400
2026-04-13,130.8,132.42,127.58,132.11,131.1267,396300
2026-04-14,131.23,132.72,130.97,131.01,130.0349,315500
2026-04-15,130.81,131.03,128.6,129.65,128.685,407100
2026-04-16,126.9,130.33,126.9,128.29,127.3351,393800
2026-04-17,129.65,132.3,129.65,130.63,129.6577,401100
2026-04-20,130.57,131.99,129.66,130.92,129.9456,403600
2026-04-21,130.7,132.25,126.69,126.69,125.747,310200
2026-04-22,127.28,127.28,122.96,124.55,123.623,458900
2026-04-23,125.38,127.44,124.44,124.94,124.0101,440800
2026-04-24,124.41,124.41,122.57,124.08,123.1565,440900
2026-04-27,124.04,126.23,123.54,124.73,123.8016,359700
2026-04-28,126.12,126.65,123.72,125.77,124.8339,354300
2026-04-29,125.14,125.9,122.79,122.9,121.9853,448400
2026-04-30,123.43,126.08,121.88,123.68,122.7594,764800
2026-05-01,127.21,128.48,117.9,119.02,118.1341,989400
2026-05-04,118.68,121.75,117.46,120.6,119.7024,739600
2026-05-05,120.9,123.71,120.82,122.03,121.1217,628600
2026-05-06,123.18,126.39,121.67,122.63,122.1979,917000
2026-05-07,122.94,126.47,122.57,125.11,124.6692,749700
2026-05-08,125.23,125.86,120.39,120.99,120.5637,794900
2026-05-11,121.22,121.22,119.44,119.96,119.5373,706100
2026-05-12,120.45,120.86,117.14,118.05,117.6341,696600
2026-05-13,118.0,118.75,116.43,117.88,117.4647,679500
2026-05-14,118.73,120.16,117.04,117.99,117.5743,531000
2026-05-15,117.91,117.92,114.47,114.67,114.266,447000
2026-05-18,115.6,117.32,115.17,115.81,115.4019,433100
2026-05-19,115.89,116.04,112.45,113.61,113.2097,575800
2026-05-20,114.07,115.45,111.55,115.26,114.8539,562600
2026-05-21,116.5,116.5,112.77,115.51,115.103,345600
2026-05-22,115.8,116.8,114.71,116.23,115.8205,405800
2026-05-26,116.2,116.97,115.37,116.38,115.9699,344500
2026-05-27,116.94,118.11,114.73,115.3,114.8937,464000
2026-05-28,114.81,116.34,113.35,115.99,115.5813,510100
2026-05-29,115.06,117.26,113.75,115.85,115.4418,559600
2026-06-01,114.69,115.13,112.03,112.38,111.984,706800
2026-06-02,111.95,113.05,111.24,112.18,111.7847,452400
2026-06-03,111.69,114.02,111.69,112.53,112.1335,372600
2026-06-04,114.95,115.76,111.54,112.55,112.1534,337600
2026-06-05,113.09,114.59,111.98,113.36,112.9606,466300
2026-06-08,112.26,112.64,110.95,111.94,111.5456,422200
2026-06-09,113.28,116.15,112.67,115.9,115.4916,444400
2026-06-10,116.15,116.55,113.37,114.67,114.266,496800
2026-06-11,115.11,117.01,114.26,116.58,116.1692,395200
2026-06-12,117.9,118.47,116.38,117.72,117.3052,342600
2026-06-15,118.7,120.74,117.56,118.08,117.6639,576100
2026-06-16,118.5,121.05,113.77,120.65,120.2249,474700
2026-06-17,121.62,122.35,119.46,119.99,119.5672,680500
2026-06-18,120.46,122.55,119.11,120.32,119.8961,750600
2026-06-22,119.56,121.01,118.88,120.0,119.5772,468400
2026-06-23,120.36,122.58,119.08,120.61,120.185,514100
2026-06-24,121.98,125.05,121.77,124.28,123.8421,404900
2026-06-25,125.73,128.14,124.9,126.43,125.9845,363500
2026-06-26,125.94,127.12,124.76,125.98,125.5361,727400
2026-06-29,125.61,126.05,123.92,125.29,124.8485,446600
2026-06-30,124.6,126.31,123.94,125.2,124.7589,329300
2026-07-01,125.12,126.84,124.1,125.25,124.8087,405600
2026-07-02,126.27,128.23,125.41,126.98,126.5326,468400
2026-07-06,126.43,127.05,124.18,126.01,125.566,431400
2026-07-07,126.63,128.72,126.16,127.69,127.2401,392700
2026-07-08,126.45,126.71,123.04,124.21,123.7723,537700
2026-07-09,124.46,125.48,123.78,124.45,124.0115,302100
2026-07-10,125.0,126.98,124.37,125.53,125.0877,385200
2026-07-13,126.09,127.17,124.4,124.89,124.45,391600
2026-07-14,128.42,129.41,127.96,128.28,127.828,739900
2026-07-15,129.71,130.77,128.45,129.11,128.6551,466800
2026-07-16,130.02,135.08,130.02,134.75,134.2752,579300
2026-07-17,135.83,136.65,130.71,132.61,132.1427,530800
2026-07-20,132.38,132.38,129.75,129.91,129.4523,422900
2026-07-21,130.53,131.06,127.92,128.91,128.4558,328800
2026-07-22,129.81,130.48,128.48,129.17,128.7149,309900
2026-07-23,128.85,129.82,128.17,129.0,128.5455,382800
2026-07-24,129.59,132.73,129.59,132.36,131.8936,335900
2026-07-27,133.19,134.08,132.66,133.37,132.9001,411200
2026-07-28,135.38,138.03,134.83,137.81,137.3244,593100
2026-07-29,136.0,136.6,134.55,136.23,135.75,580000
2026-07-30,136.4,136.4,133.11,133.87,133.87,627000
2026-07-31,137.46,139.57,132.17,133.96,133.96,886500
2026-08-03,137.23,138.46,134.53,136.77,136.77,642500
2026-08-04,137.87,137.87,135.34,136.18,136.18,511900
2026-08-05,136.87,136.88,134.87,136.75,136.75,454800
2026-08-06,138.62,138.69,134.67,135.78,135.78,545000
2026-08-07,135.06,137.68,134.71,135.42,135.42,686300
2026-08-10,134.39,134.52,132.93,133.68,133.68,446700
2026-08-11,132.8,135.05,132.8,134.75,134.75,343700
2026-08-12,133.51,134.47,132.27,133.15,133.15,315100
2026-08-13,134.44,134.44,132.09,132.57,132.57,490800
2026-08-14,132.09,132.75,129.56,132.1,132.1,381600
2026-08-17,133.16,133.16,130.22,131.74,131.74,374500
2026-08-18,132.75,133.47,131.22,131.73,131.73,500100
2026-08-19,133.05,134.38,132.29,132.93,132.93,390400
2026-08-20,131.45,133.83,130.9,132.96,132.96,420900
2026-08-21,134.04,135.13,133.1,134.8,134.8,400500
2026-08-24,135.36,136.34,134.39,134.75,134.75,282300
2026-08-25,135.59,135.59,133.22,134.72,134.72,280900
2026-08-26,135.0,136.64,134.44,135.24,135.24,281400
2026-08-27,133.78,134.69,132.26,132.86,132.86,295700
2026-08-28,133.55,133.66,132.04,132.99,132.99,325400
2026-08-31,132.21,132.44,130.83,131.62,131.62,389200
2026-09-01,131.65,132.07,130.78,130.92,130.92,418200
2026-09-02,131.27,132.26,129.69,130.33,130.33,472500
2026-09-03,130.65,130.65,126.99,128.31,128.31,340000
2026-09-04,127.53,128.47,126.53,127.41,127.41,324000
2026-09-08,126.2,126.99,124.25,124.34,124.34,362200
2026-09-09,123.97,123.97,121.09,122.11,122.11,383000
2026-09-10,122.05,123.12,120.74,123.05,123.05,435100
2026-09-11,124.85,125.6,123.06,124.84,124.84,491900
2026-09-14,125.28,126.21,124.0,124.91,124.91,423200
2026-09-15,124.85,124.86,123.41,124.68,124.68,474700
2026-09-16,124.84,126.25,123.2,124.71,124.71,461600
2026-09-17,125.66,126.22,124.55,125.5,125.5,551500
2026-09-18,125.49,125.77,124.41,124.44,124.44,821300
2026-09-21,124.84,125.98,123.32,123.4,123.4,424400
2026-09-22,124.72,125.8,123.83,125.45,125.45,417700
2026-09-23,125.43,125.72,124.5,124.74,124.74,335300
2026-09-24,124.51,124.99,122.32,123.38,123.38,377200
2026-09-25,123.76,124.05,122.42,123.87,123.87,325600
2026-09-28,122.89,124.59,122.09,124.45,124.45,713300
2026-09-29,123.83,124.67,122.12,123.29,123.29,409800
2026-09-30,123.07,123.07,121.13,121.16,121.16,424100
2026-10-01,120.22,121.62,119.22,120.87,120.87,389000
2026-10-02,121.34,121.97,119.74,119.91,119.91,384000
2026-10-05,119.28,121.37,118.78,120.61,120.61,413100
2026-10-06,119.97,121.13,118.86,120.25,120.25,721500
2026-10-07,121.17,121.33,119.86,120.43,120.43,605900
